time(s),zw(m)
 0.0,10.00003329012
 360.0,10.00015586561
 720.0,10.00036372070
 1080.0,10.00065380080
 1440.0,10.00102917082
 1800.0,10.00148987880
 2160.0,10.00203090160
 2520.0,10.00265562064
 2880.0,10.00335744845
 3240.0,10.00413749404
 3600.0,10.00500360869
 3960.0,10.00594629795
 4320.0,10.00697165126
 4680.0,10.00807709253
 5040.0,10.00925849062
 5400.0,10.01052682587
 5760.0,10.01187228202
 6120.0,10.01329276271
 6480.0,10.01478971312
 6840.0,10.01636555729
 7200.0,10.01802034131
 7560.0,10.01975463430
 7920.0,10.02156690967
 8280.0,10.02345862358
 8640.0,10.02542843720
 9000.0,10.02747078834
 9360.0,10.02958624746
 9720.0,10.03178117167
 10080.0,10.03405512837
 10440.0,10.03640351083
 10800.0,10.03882947943
 11160.0,10.04133185576
 11520.0,10.04390752104
 11880.0,10.04655299001
 12240.0,10.04927957134
 12600.0,10.05208181825
 12960.0,10.05495633054
 13320.0,10.05790121549
 13680.0,10.06092400959
 14040.0,10.06401786396
 14400.0,10.06719092071
 14760.0,10.07043862652
 15120.0,10.07376361742
 15480.0,10.07715796727
 15840.0,10.08062616812
 16200.0,10.08416447706
 16560.0,10.08777732593
 16920.0,10.09146077636
 17280.0,10.09521523190
 17640.0,10.09904720850
 18000.0,10.10294784370
 18360.0,10.10691955804
 18720.0,10.11104853235
 19080.0,10.11721894049
 19440.0,10.12797260591
 19800.0,10.14567604072
 20160.0,10.17256200250
 20520.0,10.21070120454
 20880.0,10.26201271368
 21240.0,10.32827654973
 21600.0,10.41112073341
 21960.0,10.51200692033
 22320.0,10.63227139935
 22680.0,10.77308840952
 23040.0,10.93548798846
 23400.0,11.12035966290
 23760.0,11.32841268072
 24120.0,11.56021261319
 24480.0,11.81615441642
 24840.0,12.09644991143
 25200.0,12.40116364095
 25560.0,12.73017079542
 25920.0,13.08318231175
 26280.0,13.45974528111
 26640.0,13.85924482122
 27000.0,14.28091226295
 27360.0,14.72383090271
 27720.0,15.17913230294
 28080.0,15.58000415927
 28440.0,15.89189711146
 28800.0,16.12000190445
 29160.0,16.28465265218
 29520.0,16.40642716607
 29880.0,16.50102839668
 30240.0,16.57900071786
 30600.0,16.64691923983
 30960.0,16.70871553244
 31320.0,16.76666702635
 31680.0,16.82207257059
 32040.0,16.87566826212
 32400.0,16.92787209393
 32760.0,16.97891448181
 33120.0,17.02894571891
 33480.0,17.07805389096
 33840.0,17.12629525750
 34200.0,17.17371727772
 34560.0,17.22035728533
 34920.0,17.26624456143
 35280.0,17.31139770309
 35640.0,17.35584920799
 36000.0,17.39961525222
 36360.0,17.44271436552
 36720.0,17.48516866083
 37080.0,17.52699011922
 37440.0,17.56819772280
 37800.0,17.60880571745
 38160.0,17.64882625482
 38520.0,17.68827328776
 38880.0,17.72716275226
 39240.0,17.76550609827
 39600.0,17.80331386631
 39960.0,17.84059592472
 40320.0,17.87736151615
 40680.0,17.91362372596
 41040.0,17.94939194533
 41400.0,17.98467521263
 41760.0,18.01948431651
 42120.0,18.05382652045
 42480.0,18.08770875448
 42840.0,18.12114445644
 43200.0,18.15413505122
 43560.0,18.18669197472
 43920.0,18.21882180150
 44280.0,18.25053588207
 44640.0,18.28183807078
 45000.0,18.31273297685
 45360.0,18.34323037985
 45720.0,18.37333720673
 46080.0,18.40305815186
 46440.0,18.43239938344
 46800.0,18.46137249676
 47160.0,18.48997766745
 47520.0,18.51822140803
 47880.0,18.54611167176
 48240.0,18.57365317240
 48600.0,18.60084932603
 48960.0,18.62771052099
 49320.0,18.65423963794
 49680.0,18.68044171173
 50040.0,18.70632216047
 50400.0,18.73188446187
 50760.0,18.75713435871
 51120.0,18.78207912304
 51480.0,18.80672074531
 51840.0,18.83106555501
 52200.0,18.85511576951
 52560.0,18.87887749433
 52920.0,18.90235789637
 53280.0,18.92555679694
 53640.0,18.94848143176
 54000.0,18.97113438131
 54360.0,18.99352036072
 54720.0,19.01564480530
 55080.0,19.03751023123
 55440.0,19.05912100690
 55800.0,19.08047767898
 56160.0,19.10159022933
 56520.0,19.12245760429
 56880.0,19.14308804738
 57240.0,19.16348041539
 57600.0,19.18364089073
 57960.0,19.20357078589
 58320.0,19.22327927102
 58680.0,19.24276028333
 59040.0,19.26202390292
 59400.0,19.28106952978
 59760.0,19.29990546960
 60120.0,19.31852913627
 60480.0,19.33694231410
 60840.0,19.35515100150
 61200.0,19.37315608575
 61560.0,19.39096121556
 61920.0,19.40856898580
 62280.0,19.42598169451
 62640.0,19.44320000495
 63000.0,19.46022772800
 63360.0,19.47706511314
 63720.0,19.49371720196
 64080.0,19.51018614040
 64440.0,19.52647557711
 64800.0,19.50172681013
 65160.0,19.42487152490
 65520.0,19.33371533191
 65880.0,19.23922486735
 66240.0,19.14460084749
 66600.0,19.05077865995
 66960.0,18.95802469115
 67320.0,18.86640442159
 67680.0,18.77592179179
 68040.0,18.68656289903
 68400.0,18.59831473243
 68760.0,18.51115808274
 69120.0,18.42507454458
 69480.0,18.34005221107
 69840.0,18.25607247043
 70200.0,18.17311831544
 70560.0,18.09117812764
 70920.0,18.01024088482
 71280.0,17.93028502793
 71640.0,17.85130647903
 72000.0,17.77328179728
 72360.0,17.69620539724
 72720.0,17.62005849726
 73080.0,17.54482451023
 73440.0,17.47048966043
 73800.0,17.39704154936
 74160.0,17.32445998589
 74520.0,17.25272522718
 74880.0,17.18182705118
 75240.0,17.11174218478
 75600.0,17.04245433193
 75960.0,16.97394296176
 76320.0,16.90618423976
 76680.0,16.83916409617
 77040.0,16.77285196836
 77400.0,16.70722743499
 77760.0,16.64227257113
 78120.0,16.57795130681
 78480.0,16.51423913065
 78840.0,16.45110510282
 79200.0,16.38852428266
 79560.0,16.32645793103
 79920.0,16.26487053656
 80280.0,16.20371462904
 80640.0,16.14295703167
 81000.0,16.08254298568
 81360.0,16.02242488055
 81720.0,15.96253801087
 82080.0,15.90281150969
 82440.0,15.84316977302
 82800.0,15.78351575955
 83160.0,15.72375326393
 83520.0,15.66375894326
 83880.0,15.60337551810
 84240.0,15.54243470172
 84600.0,15.48071802763
 84960.0,15.41795032264
 85320.0,15.35379083295
 85680.0,15.28780460209
 86040.0,15.21941467317
 86400.0,15.14784727521
 86760.0,15.07202628360
 87120.0,14.99042637517
 87480.0,14.90308688984
 87840.0,14.81127220569
 88200.0,14.71612954316
 88560.0,14.61873241428
 88920.0,14.52004861180
 89280.0,14.42097482628
 89640.0,14.32232934304
 90000.0,14.22487479726
 90360.0,14.12929793690
 90720.0,14.03623768350
 91080.0,13.94627469178
 91440.0,13.85995090716
 91800.0,13.77747370681
 92160.0,13.69864051686
 92520.0,13.62326124375
 92880.0,13.55116403427
 93240.0,13.48218667256
 93600.0,13.41617531323
 93960.0,13.35298107411
 94320.0,13.29247249634
 94680.0,13.23451212039
 95040.0,13.17898514825
 95400.0,13.12577641724
 95760.0,13.07478223339
 96120.0,13.02589984525
 96480.0,12.97902980648
 96840.0,12.93407866560
 97200.0,12.89096826365
 97560.0,12.84961274633
 97920.0,12.80992835046
 98280.0,12.77185349880
 98640.0,12.73531100366
 99000.0,12.70022903416
 99360.0,12.66655502750
 99720.0,12.63422305995
 100080.0,12.60318354614
 100440.0,12.57338042608
 100800.0,12.54475183928
 101160.0,12.51725897722
 101520.0,12.49085797142
 101880.0,12.46549928987
 102240.0,12.44113516496
 102600.0,12.41772837869
 102960.0,12.39524260277
 103320.0,12.37363965366
 103680.0,12.35288129429
 104040.0,12.33294112176
 104400.0,12.31377783453
 104760.0,12.29537270366
 105120.0,12.27768417352
 105480.0,12.26068418904
 105840.0,12.24435141487
 106200.0,12.22866453150
 106560.0,12.21358658856
 106920.0,12.19909826677
 107280.0,12.18518039707
 107640.0,12.17180474406
 108000.0,12.15895416507
 108360.0,12.14660712270
 108720.0,12.13474908446
 109080.0,12.12335790824
 109440.0,12.11241753728
 109800.0,12.10190539474
 110160.0,12.09181200885
 110520.0,12.08211556650
 110880.0,12.07280231450
 111240.0,12.06386506441
 111600.0,12.05528248220
 111960.0,12.04703685551
 112320.0,12.03912546271
 112680.0,12.03152707279
 113040.0,12.02423088747
 113400.0,12.01722517658
 113760.0,12.01050269585
 114120.0,12.00405637695
 114480.0,11.99786720331
 114840.0,11.99193115616
 115200.0,11.98623722036
 115560.0,11.98078044157
 115920.0,11.97554467298
 116280.0,11.97051963583
 116640.0,11.96570261896
 117000.0,11.96109243271
 117360.0,11.95667170473
 117720.0,11.95243184432
 118080.0,11.94837417004
 118440.0,11.94448594423
 118800.0,11.94076233677
 119160.0,11.93719452181
 119520.0,11.93378500819
 119880.0,11.93051702389
 120240.0,11.92738933122
 120600.0,11.92439742833
 120960.0,11.92154196934
 121320.0,11.91880814257
 121680.0,11.91620028903
 122040.0,11.91370558605
 122400.0,11.91132285175
 122760.0,11.90905196839
 123120.0,11.90688373722
 123480.0,11.90481132121
 123840.0,11.90284063848
 124200.0,11.90095920381
 124560.0,11.89916851380
 124920.0,11.89745856528
 125280.0,11.89583578698
 125640.0,11.89429163993
 126000.0,11.89282249536
 126360.0,11.89142220137
 126720.0,11.89009000857
 127080.0,11.88882771291
 127440.0,11.88763257504
 127800.0,11.88649434625
 128160.0,11.88541872383
 128520.0,11.88440164290
 128880.0,11.88344128976
 129240.0,11.88252637495
 129600.0,11.88166850191
 129960.0,11.88085831373
 130320.0,11.88009121992
 130680.0,11.87937478540
 131040.0,11.87869397559
 131400.0,11.87805847027
 131760.0,11.87746115979
 132120.0,11.87690573635
 132480.0,11.87638986061
 132840.0,11.87590505439
 133200.0,11.87545221175
 133560.0,11.87502983248
 133920.0,11.87464352931
 134280.0,11.87428457842
 134640.0,11.87395378530
 135000.0,11.87364923021
 135360.0,11.87336720806
 135720.0,11.87311126656
 136080.0,11.87288404956
 136440.0,11.87267729332
 136800.0,11.87249451272
 137160.0,11.87232712714
 137520.0,11.87218614447
 137880.0,11.87206484829
 138240.0,11.87195814250
 138600.0,11.87186842632
 138960.0,11.87179390881
 139320.0,11.87173216991
 139680.0,11.87169232299
 140040.0,11.87166326026
 140400.0,11.87164755119
 140760.0,11.87164755119
 141120.0,11.87164755119
 141480.0,11.87166427706
 141840.0,11.87168442049
 142200.0,11.87171406442
 142560.0,11.87175574177
 142920.0,11.87181379668
 143280.0,11.87187971204
 143640.0,11.87194725284
 144000.0,11.87203026533
 144360.0,11.87212280521
 144720.0,11.87222047010
 145080.0,11.87231865304
 145440.0,11.87242530535
 145800.0,11.87253685395
 146160.0,11.87266106262
 146520.0,11.87278934531
 146880.0,11.87291716886
 147240.0,11.87305152969
 147600.0,11.87319281347
 147960.0,11.87333632272
 148320.0,11.87348387675
 148680.0,11.87363724916
 149040.0,11.87379110615
 149400.0,11.87394681876
 149760.0,11.87410649790
 150120.0,11.87426401186
 150480.0,11.87442524326
 150840.0,11.87459052862
 151200.0,11.87475953612
 151560.0,11.87493372587
 151920.0,11.87510557596
 152280.0,11.87527960620
 152640.0,11.87545705809
 153000.0,11.87563093203
 153360.0,11.87580814721
 153720.0,11.87597848911
 154080.0,11.87615096427
 154440.0,11.87632657236
 154800.0,11.87650425506
 155160.0,11.87668226722
 155520.0,11.87685528340
 155880.0,11.87702845755
 156240.0,11.87720618592
 156600.0,11.87738478466
 156960.0,11.87756280322
 157320.0,11.87773097616
 157680.0,11.87789832062
 158040.0,11.87806792617
 158400.0,11.87824155018
 158760.0,11.87841198639
 159120.0,11.87857634969
 159480.0,11.87874397409
 159840.0,11.87890916332
 160200.0,11.87907097453
 160560.0,11.87923707665
 160920.0,11.87939456139
 161280.0,11.87955064563
 161640.0,11.87970983420
 162000.0,11.87986807031
 162360.0,11.88002637525
 162720.0,11.88017546922
 163080.0,11.88032231079
 163440.0,11.88047344839
 163800.0,11.88061644606
 164160.0,11.88076490639
 164520.0,11.88091140274
 164880.0,11.88105518753
 165240.0,11.88119105483
 165600.0,11.88132578436
 165960.0,11.88145871254
 166320.0,11.88159304544
 166680.0,11.88172404569
 167040.0,11.88185562894
 167400.0,11.88198265940
 167760.0,11.88210527306
 168120.0,11.88222206632
 168480.0,11.88233771998
 168840.0,11.88245297406
 169200.0,11.88256578815
 169560.0,11.88267811947
 169920.0,11.88278730293
 170280.0,11.88289789852
 170640.0,11.88300034903
 171000.0,11.88310778868
 171360.0,11.88320962042
 171720.0,11.88330471113
 172080.0,11.88340518049
 172440.0,11.88350162122
 172800.0,11.88359856479
 173160.0,11.88368896833
 173520.0,11.88377869366
 173880.0,11.88386663604
 174240.0,11.88395018430
 174600.0,11.88403082075
 174960.0,11.88410771327
 175320.0,11.88418131502
 175680.0,11.88425171273
 176040.0,11.88432819336
 176400.0,11.88439592471
 176760.0,11.88446733173
 177120.0,11.88453463309
 177480.0,11.88459482262
 177840.0,11.88465085547
 178200.0,11.88470797400
 178560.0,11.88475949447
 178920.0,11.88481563784
 179280.0,11.88486920043
 179640.0,11.88491887690
 180000.0,11.88496593065
 180360.0,11.88501109158
 180720.0,11.88505039144
 181080.0,11.88508678382
 181440.0,11.88512878952
 181800.0,11.88516110828
 182160.0,11.88519973578
 182520.0,11.88523418330
 182880.0,11.88526435027
 183240.0,11.88529527368
 183600.0,11.88531934042
 183960.0,11.88533908410
 184320.0,11.88535930801
 184680.0,11.88538059975
 185040.0,11.88539487050
 185400.0,11.88540756722
 185760.0,11.88541879029
 186120.0,11.88542806376
 186480.0,11.88543763721
 186840.0,11.88545000072
 187200.0,11.88545403832
 187560.0,11.88545403832
 187920.0,11.88545403832
 188280.0,11.88545403832
 188640.0,11.88545403832
 189000.0,11.88545403832
 189360.0,11.88545403832
 189720.0,11.88545403832
 190080.0,11.88545403832
 190440.0,11.88545403832
 190800.0,11.88545403832

